,Set point 1,Set point 2,Constant Green,Constant Red,Time (min)
0,0.037053927969772436,0.037053927969772436,0.037053927969772436,0.037053927969772436,0.0
1,0.03752534337863722,0.03752534474834632,0.037525344748345964,0.03752534474835255,1.0010427528675705
2,0.03811439682241696,0.03811446184693782,0.0381144618469291,0.03811443935352445,2.002085505735141
3,0.038810551596955324,0.03881057952879535,0.038810579528768055,0.03881023147985342,3.0031282586027115
4,0.03959543188238562,0.039595448817945474,0.03959544881427873,0.03959392390466083,4.004171011470282
5,0.04045136105457966,0.04045147027424176,0.040451470209034626,0.040447539394148364,5.005213764337853
6,0.04136337921299559,0.04136323441433471,0.04136323448906538,0.04135508709150441,6.006256517205423
7,0.04231957527893425,0.04231960214977122,0.0423196021719299,0.04230517577801561,7.007299270072993
8,0.04331031012306112,0.04331036912050552,0.04331036909153477,0.04328734990258898,8.008342022940564
9,0.04432811857606803,0.044328508174968716,0.04432850815784855,0.04429428497553262,9.009384775808135
10,0.04536706623446686,0.04536842382998267,0.045368423811089034,0.0453201680309648,10.010427528675706
11,0.04642256683989467,0.04642582516474653,0.04642582514467871,0.04636059252396496,11.011470281543275
12,0.04749114737631875,0.04749734921957434,0.04749734919875293,0.047412282087039584,12.012513034410846
13,0.048570287510471634,0.04858044214686601,0.04858044212558566,0.04847276570572364,13.013555787278417
14,0.04965825830077906,0.049673276987906995,0.049673276966379735,0.04954011604750434,14.014598540145986
15,0.0507538383129546,0.05077458215036587,0.050774582128729255,0.050612818261323744,15.015641293013557
16,0.05185629202446391,0.05188316172662811,0.051883161704972876,0.051689528010174665,16.016684045881128
17,0.05296508024326225,0.05299859291317671,0.05299859289158113,0.052769399832254905,17.017726798748697
18,0.054079814992539166,0.054120440034125486,0.05412044001264404,0.05385160607283268,18.01876955161627
19,0.05520006269633798,0.055248284462244744,0.05524828444090831,0.054935421826885024,19.01981230448384
20,0.05632532015149871,0.05638184497604296,0.05638184495486888,0.05602032278064453,20.02085505735141
21,0.05745511952782675,0.05752097416567727,0.05752097478541401,0.057105896199011956,21.02189781021898
22,0.05858910814899568,0.05866542737494153,0.058665429984817934,0.05819191971355754,22.02294056308655
23,0.059727118117344595,0.059815025978701065,0.05981502498178221,0.05927824067320204,23.023983315954123
24,0.060869205055638684,0.06096969485443279,0.060969695795418964,0.06036464351054089,24.025026068821692
25,0.06201555189918821,0.062129445683621505,0.06212944670267577,0.061450851553969614,25.02606882168926
26,0.0631662530938797,0.06329433793920139,0.06329433776125942,0.06253655041718047,26.027111574556834
27,0.06432120878928912,0.06446446561011641,0.0644644634959233,0.06362139904834124,27.028154327424403
28,0.06548018966990174,0.06563991716492944,0.06563991731317632,0.06470504477975196,28.029197080291972
29,0.06664290882201618,0.06682077972266752,0.06682080383753619,0.06578711303039934,29.030239833159545
30,0.06780906744088468,0.06800700127585574,0.0680072185204197,0.0668672279763859,30.031282586027114
31,0.0689784141700313,0.06919842860666926,0.06919920788427687,0.06794508122878135,31.032325338894687
32,0.07015081957365732,0.07039490390585554,0.07039671298991414,0.06902054617707953,32.033368091762256
33,0.07132636760566997,0.0715963641307952,0.07159969779851702,0.07009352860814513,33.034410844629825
34,0.0725054210583397,0.07280287524296448,0.07280819618072883,0.07116380162744324,34.035453597497394
35,0.07368848143028725,0.07401457752371168,0.07402228849982045,0.07223101247414533,35.03649635036497
36,0.07487589866846209,0.0752316608424642,0.07524211085749702,0.07329470748461284,36.03753910323254
37,0.07606770628054733,0.07645432551896812,0.07646777655269975,0.0743543866530691,37.03858185610011
38,0.07726373161139953,0.07768275767631379,0.07769941476876198,0.07540949796480384,38.03962460896768
39,0.07846368813030448,0.07891712568926647,0.07893714856222447,0.07645944778535833,39.04066736183525
40,0.07966724460710568,0.08015743332354697,0.08018109834654347,0.07750362721224631,40.04171011470282
41,0.08087410651917337,0.08140356470983985,0.08143131784403904,0.07854149889702167,41.04275286757039
42,0.08208411530492912,0.08265539097326485,0.08268775672623092,0.07957277058287313,42.04379562043796
43,0.08329739950214295,0.08391287157201266,0.08395039654266233,0.08059718816794324,43.04483837330553
44,0.0845144805350392,0.08517609514793341,0.08521926675563579,0.08161435187911402,44.0458811261731
45,0.0857359788092352,0.08644523177493998,0.08649445797734419,0.0826236756735553,45.04692387904067
46,0.08696216653914411,0.08772049152392447,0.08777609888504789,0.08362444712446924,46.047966631908245
47,0.08819295393068906,0.08900208769036562,0.08906430228590725,0.0846158990548058,47.049009384775815
48,0.08942804009615606,0.0902902255450706,0.09035920071912487,0.08559717714091175,48.050052137643384
49,0.09066701670870349,0.09158501674208219,0.09166090424105482,0.08656741704215816,49.05109489051095
50,0.09190942982888622,0.0928863721933922,0.09296953618882224,0.08752571064593317,50.05213764337852
51,0.09315487680907154,0.09419411857823475,0.0942851451972125,0.08847125413874903,51.0531803962461
52,0.09440312990945884,0.09550810269921933,0.09560768295003921,0.08940355193467889,52.05422314911367
53,0.09565438009067057,0.09682828208278885,0.096937128724595,0.09032218081279325,53.05526590198124
54,0.09690941719092838,0.0981547660159537,0.098273509982896,0.0912265808051203,54.056308654848806
55,0.09816918967236915,0.09948775842215167,0.0996169212137563,0.09211596074032322,55.057351407716375
56,0.09943412921424252,0.10082750551995591,0.10096747539702161,0.09298943740220539,56.058394160583944
57,0.10070414069626844,0.10217425445463879,0.10232528636097396,0.09384605556287216,57.05943691345152
58,0.10197882443255747,0.10352824380117369,0.10369048259202433,0.09468477841241273,58.06047966631909
59,0.10325760014484116,0.10488960085958701,0.1050631630080176,0.09550463539957528,59.06152241918666
60,0.10453983713048096,0.10625823591059895,0.10644344955346903,0.09630458352145074,60.06256517205423
61,0.10582494751230369,0.10763396420790325,0.1078313838321374,0.09708375461493828,61.0636079249218
62,0.10711256329429368,0.10901661739407767,0.10922692195155823,0.09784162590051691,62.06465067778937
63,0.10840292471472286,0.11040614870896509,0.11063003250249369,0.09857783075638882,63.06569343065694
64,0.10969710626832799,0.11180267054761298,0.11204074554156368,0.0992918757123362,64.06673618352451
65,0.11099605399519528,0.1132064035018445,0.1134591555982087,0.09998304654421819,65.06777893639209
66,0.1122999490893792,0.11461760532461213,0.11488535908995204,0.10065063529288867,66.06882168925965
67,0.11360845718259097,0.11603653623864296,0.11631947472736683,0.10129381135559269,67.06986444212723
68,0.11492092808468674,0.11746341202567362,0.11776161321871989,0.10191178839880748,68.07090719499479
69,0.11623658275856637,0.11889822584150264,0.11921187422742872,0.10250385101441639,69.07194994786236
70,0.11755455938638211,0.1203407821912792,0.12067037181661405,0.10306924092638246,70.07299270072994
71,0.11887407854730946,0.12179083629030628,0.12213713918197458,0.10360744183411101,71.0740354535975
72,0.12019464014009335,0.12324818701381238,0.12361213877713181,0.10411826711811667,72.07507820646508
73,0.12151666826689049,0.12471279674913639,0.12509532450900376,0.10460179144327451,73.07612095933264
74,0.12284192057373039,0.12618480778189553,0.12658673470526197,0.10505792318446873,74.07716371220022
75,0.12417196779419058,0.12766448674409217,0.12808644639971123,0.10548645881663134,75.0782064650678
76,0.12550721575545476,0.1291521531239837,0.12959455389102528,0.10588718876085887,76.07924921793536
77,0.1268472740216067,0.1306481122092393,0.13111117580518988,0.10625978615772129,77.08029197080293
78,0.1281912971743223,0.13215262318556228,0.1326364020714323,0.10660406849982147,78.0813347236705
79,0.12953820125441998,0.13366568891636857,0.13417033438650677,0.10691986246160051,79.08237747653807
80,0.1308868044402833,0.1351871009335842,0.13571307548760278,0.10720700309713584,80.08342022940565
81,0.13223600087767876,0.13671658906304163,0.13726465510460756,0.10746554986288256,81.08446298227321
82,0.13358503580940861,0.13825393141032483,0.13882502504411173,0.1076959026866629,82.08550573514079
83,0.13493451629489356,0.13979907480561973,0.1403941396086863,0.1078986745948553,83.08654848800835
84,0.13628652407957914,0.14135218167079244,0.1419720395638457,0.10807430715285485,84.08759124087592
85,0.13764222483337785,0.14291353992557418,0.14355878135682046,0.10822319683922628,85.08863399374349
86,0.1390015658032635,0.14448348839356023,0.14515446074848504,0.10834564887413892,86.08967674661106
87,0.14036374766728815,0.14606235183002145,0.14675918451927267,0.10844189924304451,87.09071949947864
88,0.14172756809273937,0.14765023592058163,0.14837303020073886,0.10851228672881824,88.0917622523462
89,0.1430916049684288,0.14924697422011055,0.14999609887298015,0.10855711141293155,89.09280500521378
90,0.14445436814507134,0.15085225132876295,0.1516284780555326,0.10857671392431316,90.09384775808134
91,0.14581445831254936,0.15246573366248492,0.15327019376748555,0.10857158752332448,91.09489051094891
92,0.1471709321084645,0.15408717645415426,0.154921185597162,0.10854255783088237,92.09593326381649
93,0.1485249877716382,0.15571653641495173,0.15658141041993218,0.10849058722205138,93.09697601668405
94,0.14988024356544236,0.15735403403990775,0.15825090300925646,0.10841647439817265,94.09801876955163
95,0.15123887647291887,0.1590000416012053,0.15992970361540434,0.10832095108264797,95.09906152241919
96,0.15260113446323256,0.1606549871206738,0.1616179103720258,0.10820458917747006,96.10010427528677
97,0.1539661220224934,0.16231927567371807,0.16331560592395436,0.10806794268339336,97.10114702815434
98,0.1553322599862658,0.16399305608344064,0.1650228642103742,0.10791155837731184,98.1021897810219
99,0.15669768807144208,0.16567615342475855,0.16673978271065795,0.10773593666833733,99.10323253388948
100,0.15806038942317333,0.1673682199703525,0.16846642953501895,0.10754162860145774,100.10427528675704
101,0.1594184669142476,0.16906888038711845,0.17020282610206336,0.1073292749194135,101.10531803962462
102,0.16077059511115976,0.17077784542783242,0.1719488999974737,0.10709983699779697,102.1063607924922
103,0.16211834335865055,0.17249506644808157,0.17370461390882375,0.10685436357450466,103.10740354535976
104,0.16346507231235505,0.17422079022252565,0.1754699800831835,0.10659376851864179,104.10844629822734
105,0.16481209555952123,0.17595543910151862,0.17724503552055815,0.10631881206030405,105.1094890510949
106,0.1661589979670021,0.17769948640826866,0.1790298752856381,0.10603009307971226,106.11053180396247
107,0.16750433830009784,0.17945319549677038,0.1808245551493306,0.10572819812621358,107.11157455683005
108,0.16884615010943294,0.1812164565193051,0.1826291520475477,0.10541363269389452,108.11261730969761
109,0.17018216577778175,0.18298892238662368,0.18444373787428262,0.10508689292815133,109.11366006256519
110,0.1715100464573266,0.18477013619264776,0.18626837897832443,0.10474846994209976,110.11470281543275
111,0.17282759583360144,0.1865596578037939,0.18810308379817806,0.10439895489459157,111.11574556830033
112,0.1741333673950643,0.18835717394779872,0.1899477685370198,0.10403924600004365,112.11678832116789
113,0.17543043916210269,0.19016266554285016,0.19180239990609163,0.10367032457866174,113.11783107403546
114,0.17672475808672575,0.19197648726698952,0.19366696504309192,0.10329303353143392,114.11887382690304
115,0.17801905886875827,0.19379921961061902,0.19554150265292772,0.10290801085463426,115.1199165797706
116,0.17931337969723665,0.19563148768743205,0.19742608603679793,0.10251575666341442,116.12095933263818
117,0.18060616603294702,0.19747366085862175,0.19932075924286902,0.10211671599568545,117.12200208550574
118,0.1818950080297206,0.1993256491419077,0.20122559620094274,0.10171125127282091,118.12304483837332
119,0.1831770969988538,0.20118706773937162,0.20314064059236808,0.10129972102102519,119.1240875912409
120,0.18444947737598846,0.20305739682536245,0.2050659552452859,0.10088246266150523,120.12513034410846
121,0.18570936811923627,0.20493612077670184,0.20700153361114107,0.10045992400081627,121.12617309697603
122,0.1869549557560132,0.20682286232579916,0.20894728579903518,0.10003286233636983,122.1272158498436
123,0.1881899450117093,0.20871759457053382,0.21090316734941136,0.09960214661862628,123.12825860271117
124,0.1894202179558604,0.21062074797465338,0.21286915118878758,0.09916847155075965,124.12930135557875
125,0.1906480361341386,0.2125330004689604,0.21484527451399835,0.09873232006600771,125.13034410844631
126,0.19187297148854887,0.2144548546170637,0.21683158075337985,0.09829403858206737,126.13138686131389
127,0.19309306627568948,0.216386297597778,0.21882810831000213,0.09785389505415898,127.13242961418145
128,0.19430549882851442,0.21832696985743236,0.22083492111561429,0.09741208853259374,128.13347236704902
129,0.19550713235478387,0.2202763077988956,0.22285203761768763,0.09696880222911837,129.13451511991659
130,0.1966946949836307,0.2222336799439478,0.22487951238367446,0.09652420954229383,130.13555787278418
131,0.197865171081231,0.2241984967472658,0.22691732250129912,0.09607860196960433,131.13660062565174
132,0.19901678780445264,0.22617034661204793,0.22896537685568796,0.09563260047236884,132.1376433785193
133,0.20015556549461896,0.22814927842986085,0.23102360633994956,0.09518696044360207,133.13868613138686
134,0.20129056221702396,0.23013594896327091,0.23309197916191499,0.09474223621819262,134.13972888425445
135,0.20242568280725748,0.23213133936397232,0.2351705260541089,0.0942987730340597,135.14077163712201
136,0.20356103012107787,0.23413619518986498,0.2372592589459374,0.09385676297100486,136.14181438998958
137,0.2046945313451002,0.23615059889209417,0.23935821622360165,0.09341632120084238,137.14285714285717
138,0.2058229499814802,0.23817415910401898,0.2414674299338474,0.09297749840180074,138.14389989572473
139,0.20694254862464134,0.24020623052915682,0.2435869135881905,0.09254032181803191,139.1449426485923
140,0.20804944717540688,0.24224606126612566,0.24571670297594922,0.09210482337046345,140.14598540145988
141,0.20914004605773992,0.2442929344966082,0.24785675772937193,0.09167116209527135,141.14702815432744
142,0.21021228757173668,0.24634633456185046,0.25000698675026156,0.0912398589996465,142.148070907195
143,0.21127396220864716,0.24840632723416314,0.2521672939824687,0.09081157571618508,143.14911366006257
144,0.21233625181316249,0.25047375026317964,0.25433764928507163,0.09038676618605315,144.15015641293016
145,0.2134039398560065,0.2525494782563995,0.2565180528745647,0.08996566250711498,145.15119916579772
146,0.21447718530361007,0.2546336945282422,0.2587085067976078,0.08954833557891344,146.15224191866528
147,0.21555348945069874,0.2567260349322434,0.2609090404216834,0.0891347848834841,147.15328467153287
148,0.21662901895172332,0.25882582531470383,0.2631196529637135,0.08872493643399089,148.15432742440044
149,0.2176993206236372,0.2609322391439893,0.2653403529497813,0.08831870224385929,149.155370177268
150,0.21875984629713704,0.2630443875867845,0.26757115390969166,0.08791600184987229,150.1564129301356
151,0.2198063701427262,0.2651614519889701,0.26981200318905213,0.08751689738059515,151.15745568300315
152,0.2208365320798218,0.2672828681608008,0.272062793024353,0.08712184216627575,152.1584984358707
153,0.22185990400915884,0.2694088861526732,0.274323416689896,0.08673143861164415,153.15954118873827
154,0.22288996952814058,0.27154087581394093,0.27659383856000125,0.08634607668601994,154.16058394160586
155,0.22393246595719377,0.27368026866725975,0.2788740268008344,0.08596590092753563,155.16162669447343
156,0.22498759029285187,0.27582751858334964,0.2811639763102471,0.08559089949992485,156.162669447341
157,0.22605239561707532,0.27798230447812283,0.28346369725685533,0.08522098503345082,157.16371220020858
158,0.2271223591193076,0.2801438492385236,0.28577316436944034,0.08485599059988332,158.16475495307614
159,0.2281922524242466,0.2823111587042651,0.28809237806596283,0.08449574716651226,159.1657977059437
160,0.22925677170004638,0.28448312907762213,0.2904213267756276,0.08414008918256904,160.1668404588113
161,0.23031098193139143,0.2866587252334698,0.29275994665421934,0.08378901403243627,161.16788321167886
162,0.23135189463204714,0.288837209256548,0.2951081097832164,0.08344293340091659,162.16892596454642
163,0.23238511350732022,0.29101893829551445,0.29746570380234305,0.08310242188709506,163.16996871741398
164,0.233417230842706,0.2932051745596058,0.2998326805974847,0.08276783024224575,164.17101147028157
165,0.23445009692287205,0.2953964235258489,0.3022089805412451,0.08243924128018021,165.17205422314913
166,0.23548240723202354,0.2975923697999047,0.3045945934072491,0.08211659146631076,166.1730969760167
167,0.23651108825010975,0.29979220567780496,0.30698949560351413,0.08179972276619904,167.17413972888428
168,0.23753222226386048,0.30199485652822267,0.30939365155560605,0.08148840898714046,168.17518248175185
169,0.23854160568884739,0.30419908829091025,0.3118070485095214,0.0811824236119978,169.1762252346194
170,0.23953505344203185,0.30640362844357544,0.3142296479033377,0.08088153755365775,170.17726798748697
171,0.24050881988130754,0.3086072801576853,0.31666137407489103,0.08058570717715989,171.17831074035456
172,0.24146130318868234,0.3108092314484144,0.31910208168472787,0.0802953239864604,172.17935349322212
173,0.24240100460061503,0.31301038000157644,0.3215516566341262,0.0800109585820097,173.18039624608969
174,0.24333738965274077,0.31521311728854967,0.32401002027868137,0.07973292876450513,174.18143899895728
175,0.24427420714760312,0.3174186702434597,0.3264771036070956,0.07946128661904427,175.18248175182484
176,0.24521133971011003,0.3196269706924193,0.32895288364117176,0.07919593309700192,176.1835245046924
177,0.24614641649469335,0.3218371916288861,0.3314373046396098,0.07893665690978849,177.18456725756
178,0.2470759259123867,0.3240480268851483,0.33393032514302745,0.07868319559410204,178.18561001042755
179,0.24799585502480306,0.3262579677907825,0.33643190370999687,0.07843527350466531,179.18665276329511
180,0.24890212892284796,0.3284653755351474,0.33894198954526317,0.07819262372385148,180.18769551616268
181,0.2497910292651376,0.33066870016959227,0.34146048963746023,0.07795517466652273,181.18873826903027
182,0.2506612634540422,0.3328668562270615,0.3439872443285654,0.07772331262143836,182.18978102189783
183,0.2515236337016638,0.3350603476688428,0.34652213534655807,0.07749761587827718,183.1908237747654
184,0.2523900630354354,0.3372498134344532,0.34906505573927465,0.07727838050591258,184.19186652763298
185,0.2532654805700782,0.3394349372844395,0.3516159301261474,0.07706564438695225,185.19290928050054
186,0.2541500959095976,0.34161472319239494,0.3541747109913655,0.07685927734909646,186.1939520333681
187,0.2550413534369102,0.3437877456036361,0.3567413239255027,0.07665903643934484,187.1949947862357
188,0.25593527216072887,0.3459523633741386,0.3593157178046347,0.07646463430224462,188.19603753910326
189,0.25682725118636685,0.34810678682387963,0.36189782120870106,0.07627575591487637,189.19708029197082
190,0.2577125784747763,0.35024916448295096,0.36448757306530183,0.0760921106042241,190.19812304483838
191,0.2585869094347768,0.3523777606411192,0.36708486252579664,0.075913608630914,191.19916579770597
192,0.2594485878660425,0.3544914908612706,0.36968952102060376,0.07574064227869783,192.20020855057354
193,0.2603091164275695,0.3565920185486008,0.37230141745158823,0.07557379742922934,193.2012513034411
194,0.26118100877383416,0.3586813636523077,0.3749204264294452,0.07541336097847791,194.2022940563087
195,0.26206922704344277,0.36075994530180183,0.3775464651404062,0.075259365113716,195.20333680917625
196,0.26297367321323833,0.3628270135433421,0.3801794561449588,0.07511165081883957,196.2043795620438
